PE FL                   SPECTRUM    ASCII       PEDS        1.60        
  -1
SW4_006.TXT
15/03/11
14:40:09.00
15/03/11
14:43:09.00
GAB, RAF
BIDEST WATER VERSUCH 6.1 NR. 1 380NM
900.500000
1









LS50-B
380.00
2.50
2.50
SCAN
1
20
100
100
0
200
0
1
0
1
3
ON
900 400 
1 0 0
#HDR
-1
-1
#GR
NM

0.00002384185791015625
0.0
370.000000
0.500000
1062
8
148.427000
-0.635000
#DATA
370.000000	0.000000   
370.500000	-0.052000  
371.000000	0.021000   
371.500000	0.075000   
372.000000	0.071999   
372.500000	0.206000   
373.000000	0.456000   
373.500000	0.881000   
374.000000	2.209000   
374.500000	5.463000   
375.000000	9.038000   
375.500000	19.832000  
376.000000	32.919000  
376.500000	51.499000  
377.000000	81.391000  
377.500000	105.036000 
378.000000	126.348000 
378.500000	147.459000 
379.000000	148.427000 
379.500000	141.464000 
380.000000	125.009000 
380.500000	103.105000 
381.000000	71.959000  
381.500000	46.607000  
382.000000	27.651000  
382.500000	13.502000  
383.000000	6.635000   
383.500000	3.374000   
384.000000	1.381000   
384.500000	0.923000   
385.000000	0.442000   
385.500000	0.589000   
386.000000	0.316000   
386.500000	0.163000   
387.000000	0.334000   
387.500000	0.314000   
388.000000	0.225000   
388.500000	0.292000   
389.000000	0.206000   
389.500000	0.248000   
390.000000	0.065000   
390.500000	0.082000   
391.000000	0.138000   
391.500000	0.159000   
392.000000	0.176000   
392.500000	0.287000   
393.000000	0.248000   
393.500000	0.074000   
394.000000	0.055000   
394.500000	0.032000   
395.000000	-0.012000  
395.500000	-0.029000  
396.000000	0.046000   
396.500000	0.179000   
397.000000	-0.082000  
397.500000	0.066000   
398.000000	0.055000   
398.500000	0.023000   
399.000000	0.044000   
399.500000	0.182000   
400.000000	0.361000   
400.500000	0.253000   
401.000000	0.104000   
401.500000	0.012000   
402.000000	0.049000   
402.500000	0.000000   
403.000000	0.064000   
403.500000	0.196000   
404.000000	-0.081000  
404.500000	0.279000   
405.000000	0.091000   
405.500000	0.104000   
406.000000	0.046000   
406.500000	0.122000   
407.000000	0.039000   
407.500000	0.049000   
408.000000	0.138000   
408.500000	0.078000   
409.000000	0.111000   
409.500000	-0.023000  
410.000000	0.146000   
410.500000	0.082000   
411.000000	0.179000   
411.500000	0.032000   
412.000000	0.001000   
412.500000	0.120000   
413.000000	0.111000   
413.500000	0.138000   
414.000000	0.069000   
414.500000	0.114000   
415.000000	0.151000   
415.500000	0.095000   
416.000000	0.062000   
416.500000	0.105000   
417.000000	0.179000   
417.500000	0.066000   
418.000000	-0.065000  
418.500000	0.016000   
419.000000	0.112000   
419.500000	0.202000   
420.000000	0.115000   
420.500000	0.125000   
421.000000	0.058000   
421.500000	0.074000   
422.000000	0.029000   
422.500000	0.083000   
423.000000	0.097000   
423.500000	-0.036000  
424.000000	0.105000   
424.500000	0.247000   
425.000000	0.033000   
425.500000	0.065000   
426.000000	0.200000   
426.500000	0.233000   
427.000000	0.106000   
427.500000	0.205000   
428.000000	0.112000   
428.500000	0.139000   
429.000000	0.425000   
429.500000	0.577000   
430.000000	0.434000   
430.500000	0.384000   
431.000000	0.340000   
431.500000	0.195000   
432.000000	0.668000   
432.500000	0.642000   
433.000000	0.723000   
433.500000	0.696000   
434.000000	0.848000   
434.500000	0.833000   
435.000000	0.822000   
435.500000	0.688999   
436.000000	0.668000   
436.500000	0.687999   
437.000000	0.689999   
437.500000	0.560000   
438.000000	0.446000   
438.500000	0.545000   
439.000000	0.474000   
439.500000	0.325000   
440.000000	0.069000   
440.500000	0.157000   
441.000000	0.408000   
441.500000	0.216000   
442.000000	0.187000   
442.500000	0.213000   
443.000000	0.140000   
443.500000	0.222000   
444.000000	0.134000   
444.500000	0.081000   
445.000000	-0.010000  
445.500000	0.050000   
446.000000	0.196000   
446.500000	0.097000   
447.000000	0.301000   
447.500000	0.138000   
448.000000	-0.049000  
448.500000	0.052000   
449.000000	-0.003000  
449.500000	0.081000   
450.000000	0.028000   
450.500000	0.001000   
451.000000	0.095000   
451.500000	0.061000   
452.000000	0.116000   
452.500000	0.214000   
453.000000	0.358000   
453.500000	0.016000   
454.000000	-0.025000  
454.500000	-0.007000  
455.000000	-0.007000  
455.500000	0.071999   
456.000000	0.049000   
456.500000	0.016000   
457.000000	0.071999   
457.500000	0.020000   
458.000000	-0.032000  
458.500000	0.060000   
459.000000	0.189000   
459.500000	0.032000   
460.000000	0.065000   
460.500000	-0.033000  
461.000000	0.058000   
461.500000	0.056000   
462.000000	0.118000   
462.500000	0.098000   
463.000000	0.111000   
463.500000	-0.008000  
464.000000	0.128000   
464.500000	0.172000   
465.000000	0.012000   
465.500000	0.046000   
466.000000	0.224000   
466.500000	-0.016000  
467.000000	0.163000   
467.500000	0.066000   
468.000000	0.013000   
468.500000	0.055000   
469.000000	0.045000   
469.500000	0.052000   
470.000000	-0.039000  
470.500000	0.000000   
471.000000	0.069000   
471.500000	0.104000   
472.000000	0.000000   
472.500000	-0.006000  
473.000000	0.026000   
473.500000	-0.065000  
474.000000	0.082000   
474.500000	0.000000   
475.000000	0.036000   
475.500000	0.105000   
476.000000	0.048000   
476.500000	0.000000   
477.000000	0.052000   
477.500000	0.073000   
478.000000	0.027000   
478.500000	0.032000   
479.000000	0.057000   
479.500000	-0.066000  
480.000000	0.006000   
480.500000	-0.049000  
481.000000	-0.082000  
481.500000	-0.016000  
482.000000	-0.016000  
482.500000	-0.006000  
483.000000	0.057000   
483.500000	0.057000   
484.000000	-0.029000  
484.500000	0.099000   
485.000000	0.158000   
485.500000	0.052000   
486.000000	0.074000   
486.500000	0.045000   
487.000000	0.032000   
487.500000	0.033000   
488.000000	-0.016000  
488.500000	-0.180000  
489.000000	0.007000   
489.500000	0.094000   
490.000000	0.041000   
490.500000	-0.035000  
491.000000	0.006000   
491.500000	0.114000   
492.000000	0.153000   
492.500000	-0.114000  
493.000000	0.013000   
493.500000	-0.006000  
494.000000	0.007000   
494.500000	0.114000   
495.000000	-0.016000  
495.500000	0.016000   
496.000000	0.141000   
496.500000	0.125000   
497.000000	0.136000   
497.500000	0.056000   
498.000000	0.065000   
498.500000	0.082000   
499.000000	0.030000   
499.500000	-0.006000  
500.000000	0.062000   
500.500000	-0.010000  
501.000000	-0.071999  
501.500000	-0.049000  
502.000000	0.016000   
502.500000	-0.016000  
503.000000	0.008999   
503.500000	0.001000   
504.000000	0.102000   
504.500000	0.152000   
505.000000	0.032000   
505.500000	0.058000   
506.000000	0.070999   
506.500000	-0.046000  
507.000000	-0.098000  
507.500000	-0.151000  
508.000000	0.073000   
508.500000	0.082000   
509.000000	0.016000   
509.500000	0.065000   
510.000000	-0.016000  
510.500000	-0.039000  
511.000000	-0.118000  
511.500000	-0.023000  
512.000000	0.032000   
512.500000	-0.008000  
513.000000	-0.059000  
513.500000	0.020000   
514.000000	0.085999   
514.500000	0.016000   
515.000000	0.066000   
515.500000	0.016000   
516.000000	-0.016000  
516.500000	-0.016000  
517.000000	0.017000   
517.500000	0.120000   
518.000000	0.033000   
518.500000	0.061000   
519.000000	0.040000   
519.500000	0.057000   
520.000000	0.045000   
520.500000	0.112000   
521.000000	-0.021000  
521.500000	-0.082000  
522.000000	0.062000   
522.500000	-0.016000  
523.000000	-0.032000  
523.500000	-0.033000  
524.000000	0.071999   
524.500000	-0.008999  
525.000000	0.056000   
525.500000	-0.036000  
526.000000	-0.039000  
526.500000	-0.041000  
527.000000	-0.013000  
527.500000	0.003000   
528.000000	-0.066000  
528.500000	-0.016000  
529.000000	0.263000   
529.500000	-0.033000  
530.000000	0.016000   
530.500000	0.016000   
531.000000	0.026000   
531.500000	0.039000   
532.000000	-0.057000  
532.500000	0.071999   
533.000000	0.131000   
533.500000	0.000000   
534.000000	0.006000   
534.500000	0.059000   
535.000000	0.122000   
535.500000	-0.093000  
536.000000	0.024000   
536.500000	0.065000   
537.000000	-0.016000  
537.500000	0.065000   
538.000000	0.058000   
538.500000	-0.052000  
539.000000	0.140000   
539.500000	0.085000   
540.000000	-0.045000  
540.500000	-0.032000  
541.000000	-0.128000  
541.500000	-0.075000  
542.000000	-0.070000  
542.500000	-0.058000  
543.000000	-0.140000  
543.500000	0.099000   
544.000000	0.049000   
544.500000	0.016000   
545.000000	-0.087999  
545.500000	0.092000   
546.000000	-0.097000  
546.500000	0.026000   
547.000000	0.019000   
547.500000	0.074000   
548.000000	0.137000   
548.500000	-0.019000  
549.000000	0.037000   
549.500000	0.003000   
550.000000	-0.003000  
550.500000	0.000000   
551.000000	0.032000   
551.500000	-0.082000  
552.000000	0.078000   
552.500000	0.035000   
553.000000	-0.052000  
553.500000	0.019000   
554.000000	-0.013000  
554.500000	0.000000   
555.000000	0.052000   
555.500000	0.066000   
556.000000	-0.033000  
556.500000	-0.118000  
557.000000	-0.026000  
557.500000	0.098000   
558.000000	0.016000   
558.500000	0.016000   
559.000000	0.019000   
559.500000	-0.084000  
560.000000	-0.024000  
560.500000	0.033000   
561.000000	0.022000   
561.500000	0.008000   
562.000000	0.022000   
562.500000	0.033000   
563.000000	-0.008000  
563.500000	0.020000   
564.000000	0.019000   
564.500000	0.000000   
565.000000	-0.065000  
565.500000	0.213000   
566.000000	-0.020000  
566.500000	-0.025000  
567.000000	-0.004000  
567.500000	-0.023000  
568.000000	0.026000   
568.500000	0.056000   
569.000000	0.010000   
569.500000	0.046000   
570.000000	-0.008000  
570.500000	0.020000   
571.000000	-0.007000  
571.500000	-0.033000  
572.000000	-0.016000  
572.500000	-0.164000  
573.000000	-0.058000  
573.500000	-0.022000  
574.000000	0.012000   
574.500000	-0.007000  
575.000000	-0.016000  
575.500000	-0.057000  
576.000000	-0.020000  
576.500000	0.012000   
577.000000	-0.012000  
577.500000	0.023000   
578.000000	0.098000   
578.500000	0.049000   
579.000000	-0.016000  
579.500000	0.115000   
580.000000	0.042000   
580.500000	0.059000   
581.000000	-0.028000  
581.500000	-0.008999  
582.000000	0.000000   
582.500000	-0.008000  
583.000000	-0.085000  
583.500000	-0.022000  
584.000000	-0.012000  
584.500000	-0.059000  
585.000000	0.027000   
585.500000	0.016000   
586.000000	-0.016000  
586.500000	0.049000   
587.000000	0.049000   
587.500000	-0.082000  
588.000000	-0.061000  
588.500000	0.007000   
589.000000	0.008999   
589.500000	-0.017000  
590.000000	-0.013000  
590.500000	-0.059000  
591.000000	0.062000   
591.500000	0.023000   
592.000000	0.000000   
592.500000	0.032000   
593.000000	0.000000   
593.500000	-0.147000  
594.000000	-0.092000  
594.500000	0.051000   
595.000000	-0.004000  
595.500000	-0.008999  
596.000000	0.066000   
596.500000	0.074000   
597.000000	0.004000   
597.500000	0.016000   
598.000000	0.041000   
598.500000	-0.016000  
599.000000	0.020000   
599.500000	-0.016000  
600.000000	0.179000   
600.500000	0.000000   
601.000000	0.008999   
601.500000	-0.016000  
602.000000	-0.033000  
602.500000	-0.029000  
603.000000	0.023000   
603.500000	-0.033000  
604.000000	-0.038000  
604.500000	-0.062000  
605.000000	-0.044000  
605.500000	-0.019000  
606.000000	0.010000   
606.500000	-0.114000  
607.000000	-0.016000  
607.500000	0.081000   
608.000000	0.022000   
608.500000	0.024000   
609.000000	0.147000   
609.500000	0.016000   
610.000000	0.001000   
610.500000	-0.016000  
611.000000	0.085999   
611.500000	0.226000   
612.000000	0.122000   
612.500000	-0.102000  
613.000000	-0.029000  
613.500000	0.132000   
614.000000	0.099000   
614.500000	0.033000   
615.000000	-0.020000  
615.500000	-0.039000  
616.000000	-0.048000  
616.500000	-0.013000  
617.000000	-0.012000  
617.500000	-0.033000  
618.000000	-0.042000  
618.500000	-0.066000  
619.000000	0.012000   
619.500000	0.022000   
620.000000	0.003000   
620.500000	0.016000   
621.000000	-0.065000  
621.500000	-0.016000  
622.000000	0.006000   
622.500000	0.001000   
623.000000	0.070000   
623.500000	-0.035000  
624.000000	0.010000   
624.500000	-0.049000  
625.000000	0.049000   
625.500000	0.032000   
626.000000	-0.025000  
626.500000	0.071999   
627.000000	0.032000   
627.500000	0.000000   
628.000000	-0.083000  
628.500000	-0.149000  
629.000000	-0.003000  
629.500000	0.039000   
630.000000	0.000000   
630.500000	0.000000   
631.000000	0.000000   
631.500000	0.000000   
632.000000	-0.050000  
632.500000	-0.042000  
633.000000	0.020000   
633.500000	0.046000   
634.000000	0.022000   
634.500000	0.000000   
635.000000	-0.016000  
635.500000	0.000000   
636.000000	-0.028000  
636.500000	0.004000   
637.000000	0.049000   
637.500000	-0.029000  
638.000000	-0.007000  
638.500000	-0.074000  
639.000000	-0.032000  
639.500000	0.053000   
640.000000	0.016000   
640.500000	-0.013000  
641.000000	-0.016000  
641.500000	-0.246000  
642.000000	0.000000   
642.500000	0.000000   
643.000000	0.026000   
643.500000	-0.104000  
644.000000	-0.021000  
644.500000	-0.035000  
645.000000	0.006000   
645.500000	-0.065000  
646.000000	-0.058000  
646.500000	-0.052000  
647.000000	-0.016000  
647.500000	0.000000   
648.000000	0.000000   
648.500000	-0.032000  
649.000000	0.065000   
649.500000	0.000000   
650.000000	0.073000   
650.500000	0.077000   
651.000000	0.013000   
651.500000	-0.003000  
652.000000	-0.048000  
652.500000	0.000000   
653.000000	0.000000   
653.500000	-0.010000  
654.000000	-0.066000  
654.500000	0.023000   
655.000000	-0.003000  
655.500000	0.049000   
656.000000	0.000000   
656.500000	-0.082000  
657.000000	-0.081000  
657.500000	-0.020000  
658.000000	-0.046000  
658.500000	-0.056000  
659.000000	-0.081000  
659.500000	-0.056000  
660.000000	0.016000   
660.500000	-0.105000  
661.000000	-0.053000  
661.500000	-0.016000  
662.000000	0.075000   
662.500000	0.033000   
663.000000	0.081000   
663.500000	0.000000   
664.000000	0.036000   
664.500000	0.001000   
665.000000	0.061000   
665.500000	0.016000   
666.000000	-0.066000  
666.500000	-0.057000  
667.000000	0.039000   
667.500000	-0.063000  
668.000000	-0.098000  
668.500000	0.036000   
669.000000	-0.064000  
669.500000	-0.016000  
670.000000	0.066000   
670.500000	0.016000   
671.000000	-0.020000  
671.500000	-0.028000  
672.000000	-0.020000  
672.500000	0.014000   
673.000000	0.074000   
673.500000	0.032000   
674.000000	-0.059000  
674.500000	-0.087999  
675.000000	0.079000   
675.500000	0.026000   
676.000000	0.000000   
676.500000	0.000000   
677.000000	-0.049000  
677.500000	-0.016000  
678.000000	-0.042000  
678.500000	-0.020000  
679.000000	-0.033000  
679.500000	0.027000   
680.000000	0.076000   
680.500000	0.000000   
681.000000	-0.055000  
681.500000	-0.051000  
682.000000	-0.008000  
682.500000	-0.026000  
683.000000	-0.019000  
683.500000	0.000000   
684.000000	-0.016000  
684.500000	0.000000   
685.000000	-0.007000  
685.500000	-0.028000  
686.000000	0.008999   
686.500000	0.016000   
687.000000	-0.029000  
687.500000	0.024000   
688.000000	-0.079000  
688.500000	-0.003000  
689.000000	0.008000   
689.500000	-0.003000  
690.000000	-0.013000  
690.500000	-0.066000  
691.000000	-0.032000  
691.500000	0.048000   
692.000000	-0.020000  
692.500000	-0.015000  
693.000000	0.032000   
693.500000	-0.016000  
694.000000	-0.008999  
694.500000	-0.073000  
695.000000	-0.068000  
695.500000	-0.006000  
696.000000	-0.012000  
696.500000	-0.029000  
697.000000	0.060000   
697.500000	0.000000   
698.000000	-0.016000  
698.500000	0.000000   
699.000000	-0.016000  
699.500000	-0.016000  
700.000000	-0.016000  
700.500000	0.004000   
701.000000	0.006000   
701.500000	-0.065000  
702.000000	-0.086999  
702.500000	-0.032000  
703.000000	0.124000   
703.500000	0.020000   
704.000000	-0.016000  
704.500000	0.000000   
705.000000	-0.032000  
705.500000	0.032000   
706.000000	0.008999   
706.500000	-0.020000  
707.000000	-0.024000  
707.500000	0.033000   
708.000000	0.042000   
708.500000	-0.008000  
709.000000	0.010000   
709.500000	0.046000   
710.000000	0.004000   
710.500000	0.036000   
711.000000	0.049000   
711.500000	-0.016000  
712.000000	-0.065000  
712.500000	0.000000   
713.000000	0.045000   
713.500000	-0.019000  
714.000000	0.020000   
714.500000	-0.008999  
715.000000	0.013000   
715.500000	-0.050000  
716.000000	-0.062000  
716.500000	-0.046000  
717.000000	-0.028000  
717.500000	-0.029000  
718.000000	-0.019000  
718.500000	-0.048000  
719.000000	-0.033000  
719.500000	-0.065000  
720.000000	-0.053000  
720.500000	0.038000   
721.000000	-0.049000  
721.500000	0.060000   
722.000000	0.083000   
722.500000	0.025000   
723.000000	0.026000   
723.500000	0.000000   
724.000000	0.024000   
724.500000	-0.007000  
725.000000	-0.003000  
725.500000	0.032000   
726.000000	-0.016000  
726.500000	0.065000   
727.000000	0.033000   
727.500000	0.117000   
728.000000	-0.056000  
728.500000	0.034000   
729.000000	0.046000   
729.500000	0.008999   
730.000000	0.029000   
730.500000	-0.016000  
731.000000	-0.004000  
731.500000	0.105000   
732.000000	0.104000   
732.500000	0.000000   
733.000000	-0.016000  
733.500000	-0.016000  
734.000000	0.101000   
734.500000	0.059000   
735.000000	0.084000   
735.500000	0.015000   
736.000000	0.007000   
736.500000	0.000000   
737.000000	0.013000   
737.500000	0.055000   
738.000000	-0.038000  
738.500000	0.066000   
739.000000	0.019000   
739.500000	0.000000   
740.000000	-0.016000  
740.500000	-0.016000  
741.000000	-0.042000  
741.500000	-0.039000  
742.000000	0.078000   
742.500000	-0.060000  
743.000000	-0.012000  
743.500000	0.008000   
744.000000	0.000000   
744.500000	0.000000   
745.000000	-0.123000  
745.500000	-0.032000  
746.000000	-0.013000  
746.500000	0.114000   
747.000000	0.032000   
747.500000	-0.016000  
748.000000	0.017000   
748.500000	0.099000   
749.000000	0.182000   
749.500000	0.393000   
750.000000	0.626000   
750.500000	0.683000   
751.000000	1.174000   
751.500000	1.496000   
752.000000	2.780000   
752.500000	3.222000   
753.000000	4.392000   
753.500000	6.082000   
754.000000	6.912000   
754.500000	8.608000   
755.000000	10.196000  
755.500000	11.135000  
756.000000	12.385000  
756.500000	11.893000  
757.000000	12.779000  
757.500000	13.276000  
758.000000	13.379000  
758.500000	12.240000  
759.000000	11.400000  
759.500000	9.428000   
760.000000	9.166000   
760.500000	6.363000   
761.000000	5.649000   
761.500000	4.434000   
762.000000	3.028000   
762.500000	2.055000   
763.000000	1.548000   
763.500000	0.901000   
764.000000	0.505000   
764.500000	0.445000   
765.000000	0.391000   
765.500000	0.229000   
766.000000	0.020000   
766.500000	0.010000   
767.000000	0.068000   
767.500000	-0.016000  
768.000000	0.016000   
768.500000	-0.032000  
769.000000	-0.026000  
769.500000	0.020000   
770.000000	0.069000   
770.500000	-0.062000  
771.000000	-0.098000  
771.500000	-0.074000  
772.000000	-0.048000  
772.500000	-0.006000  
773.000000	-0.062000  
773.500000	-0.003000  
774.000000	0.003000   
774.500000	0.049000   
775.000000	-0.033000  
775.500000	0.032000   
776.000000	0.123000   
776.500000	0.025000   
777.000000	-0.008000  
777.500000	-0.019000  
778.000000	0.000000   
778.500000	-0.008000  
779.000000	-0.006000  
779.500000	0.000000   
780.000000	-0.012000  
780.500000	-0.016000  
781.000000	-0.003000  
781.500000	-0.033000  
782.000000	0.016000   
782.500000	0.000000   
783.000000	-0.058000  
783.500000	-0.028000  
784.000000	-0.016000  
784.500000	-0.016000  
785.000000	-0.016000  
785.500000	0.025000   
786.000000	0.026000   
786.500000	-0.020000  
787.000000	-0.020000  
787.500000	-0.003000  
788.000000	0.210000   
788.500000	-0.083000  
789.000000	0.000000   
789.500000	-0.016000  
790.000000	-0.007000  
790.500000	0.014000   
791.000000	0.126000   
791.500000	-0.109000  
792.000000	-0.101000  
792.500000	0.033000   
793.000000	0.029000   
793.500000	-0.026000  
794.000000	-0.020000  
794.500000	0.049000   
795.000000	0.000000   
795.500000	-0.081000  
796.000000	-0.033000  
796.500000	-0.016000  
797.000000	-0.095000  
797.500000	0.091000   
798.000000	-0.021000  
798.500000	-0.049000  
799.000000	-0.046000  
799.500000	-0.065000  
800.000000	-0.016000  
800.500000	-0.006000  
801.000000	-0.024000  
801.500000	-0.019000  
802.000000	0.010000   
802.500000	-0.098000  
803.000000	-0.016000  
803.500000	-0.016000  
804.000000	-0.020000  
804.500000	-0.008999  
805.000000	0.062000   
805.500000	0.000000   
806.000000	0.007000   
806.500000	0.008000   
807.000000	0.000000   
807.500000	-0.050000  
808.000000	-0.082000  
808.500000	-0.029000  
809.000000	-0.003000  
809.500000	-0.083000  
810.000000	-0.032000  
810.500000	0.016000   
811.000000	0.065000   
811.500000	0.010000   
812.000000	-0.005000  
812.500000	-0.092000  
813.000000	0.016000   
813.500000	0.008000   
814.000000	0.060000   
814.500000	0.030000   
815.000000	0.033000   
815.500000	0.063000   
816.000000	0.038000   
816.500000	-0.049000  
817.000000	0.000000   
817.500000	-0.032000  
818.000000	-0.050000  
818.500000	-0.092000  
819.000000	-0.008000  
819.500000	-0.032000  
820.000000	0.007000   
820.500000	0.016000   
821.000000	0.006000   
821.500000	-0.027000  
822.000000	0.046000   
822.500000	0.003000   
823.000000	-0.016000  
823.500000	0.033000   
824.000000	-0.131000  
824.500000	-0.081000  
825.000000	-0.004000  
825.500000	-0.016000  
826.000000	-0.033000  
826.500000	-0.055000  
827.000000	-0.049000  
827.500000	-0.065000  
828.000000	0.007000   
828.500000	0.032000   
829.000000	0.020000   
829.500000	0.003000   
830.000000	-0.052000  
830.500000	-0.032000  
831.000000	-0.016000  
831.500000	-0.032000  
832.000000	0.012000   
832.500000	-0.004000  
833.000000	-0.029000  
833.500000	-0.045000  
834.000000	-0.023000  
834.500000	-0.065000  
835.000000	-0.128000  
835.500000	-0.059000  
836.000000	-0.061000  
836.500000	-0.016000  
837.000000	-0.079000  
837.500000	0.000000   
838.000000	0.016000   
838.500000	-0.016000  
839.000000	0.023000   
839.500000	-0.008999  
840.000000	0.012000   
840.500000	-0.013000  
841.000000	-0.019000  
841.500000	-0.033000  
842.000000	-0.035000  
842.500000	-0.026000  
843.000000	-0.081000  
843.500000	-0.019000  
844.000000	-0.013000  
844.500000	0.016000   
845.000000	0.000000   
845.500000	0.000000   
846.000000	0.078000   
846.500000	-0.017000  
847.000000	-0.065000  
847.500000	-0.008999  
848.000000	0.020000   
848.500000	0.024000   
849.000000	-0.089000  
849.500000	-0.059000  
850.000000	0.074000   
850.500000	0.006000   
851.000000	-0.174000  
851.500000	-0.016000  
852.000000	0.033000   
852.500000	-0.032000  
853.000000	-0.026000  
853.500000	-0.054000  
854.000000	-0.021000  
854.500000	0.033000   
855.000000	0.104000   
855.500000	0.032000   
856.000000	0.030000   
856.500000	0.010000   
857.000000	-0.040000  
857.500000	0.017000   
858.000000	-0.019000  
858.500000	-0.016000  
859.000000	-0.100000  
859.500000	-0.032000  
860.000000	-0.004000  
860.500000	-0.012000  
861.000000	-0.004000  
861.500000	0.010000   
862.000000	0.023000   
862.500000	0.122000   
863.000000	0.143000   
863.500000	0.076000   
864.000000	-0.077000  
864.500000	-0.091000  
865.000000	0.036000   
865.500000	0.000000   
866.000000	0.133000   
866.500000	-0.032000  
867.000000	0.074000   
867.500000	0.023000   
868.000000	-0.052000  
868.500000	0.026000   
869.000000	0.003000   
869.500000	-0.049000  
870.000000	-0.023000  
870.500000	-0.053000  
871.000000	0.012000   
871.500000	0.087999   
872.000000	-0.033000  
872.500000	0.000000   
873.000000	0.016000   
873.500000	0.244000   
874.000000	-0.079000  
874.500000	0.000000   
875.000000	0.000000   
875.500000	0.000000   
876.000000	0.052000   
876.500000	0.040000   
877.000000	-0.039000  
877.500000	-0.022000  
878.000000	-0.004000  
878.500000	-0.065000  
879.000000	-0.016000  
879.500000	-0.032000  
880.000000	0.065000   
880.500000	0.032000   
881.000000	-0.004000  
881.500000	-0.077000  
882.000000	-0.032000  
882.500000	0.026000   
883.000000	-0.025000  
883.500000	-0.090000  
884.000000	-0.065000  
884.500000	-0.059000  
885.000000	-0.085000  
885.500000	0.036000   
886.000000	0.013000   
886.500000	0.049000   
887.000000	0.016000   
887.500000	-0.016000  
888.000000	-0.026000  
888.500000	-0.070000  
889.000000	-0.061000  
889.500000	-0.007000  
890.000000	-0.016000  
890.500000	-0.008000  
891.000000	-0.010000  
891.500000	0.033000   
892.000000	0.004000   
892.500000	-0.003000  
893.000000	0.066000   
893.500000	-0.016000  
894.000000	0.033000   
894.500000	-0.016000  
895.000000	-0.081000  
895.500000	-0.020000  
896.000000	-0.045000  
896.500000	-0.062000  
897.000000	-0.025000  
897.500000	-0.024000  
898.000000	-0.082000  
898.500000	-0.016000  
899.000000	-0.012000  
899.500000	-0.060000  
900.000000	-0.319000  
900.500000	-0.635000  

