PE UV                   SPECTRUM    ASCII       PEDS        1.60        
  -1
PH1A.TXT
15/03/18
15:32:57.00
15/03/18
15:51:28.00


250.000000
1









4444

SCAN
1
1


0.0
240.0
2.00
MANUAL



UV/VIS




































#HDR
-1
-1
#GR
NM
A
0.00000011920928955078
0.0
700.000000
1.000000
451
8
0.335700
-0.005210
#DATA
700.000000	-0.005210 
699.000000	-0.005210 
698.000000	-0.005050 
697.000000	-0.005050 
696.000000	-0.005120 
695.000000	-0.004940 
694.000000	-0.005030 
693.000000	-0.005060 
692.000000	-0.005080 
691.000000	-0.004830 
690.000000	-0.004890 
689.000000	-0.004790 
688.000000	-0.004810 
687.000000	-0.004700 
686.000000	-0.004650 
685.000000	-0.004720 
684.000000	-0.004790 
683.000000	-0.004440 
682.000000	-0.004370 
681.000000	-0.004420 
680.000000	-0.004240 
679.000000	-0.004230 
678.000000	-0.004400 
677.000000	-0.004160 
676.000000	-0.003830 
675.000000	-0.004080 
674.000000	-0.004050 
673.000000	-0.004080 
672.000000	-0.003900 
671.000000	-0.003840 
670.000000	-0.003780 
669.000000	-0.003710 
668.000000	-0.003600 
667.000000	-0.003690 
666.000000	-0.003590 
665.000000	-0.003410 
664.000000	-0.003610 
663.000000	-0.003480 
662.000000	-0.003510 
661.000000	-0.003650 
660.000000	-0.003570 
659.000000	-0.003530 
658.000000	-0.003510 
657.000000	-0.003600 
656.000000	-0.003420 
655.000000	-0.003480 
654.000000	-0.003570 
653.000000	-0.003350 
652.000000	-0.003240 
651.000000	-0.003390 
650.000000	-0.003410 
649.000000	-0.003160 
648.000000	-0.003120 
647.000000	-0.003460 
646.000000	-0.003460 
645.000000	-0.003200 
644.000000	-0.003410 
643.000000	-0.003110 
642.000000	-0.003180 
641.000000	-0.003160 
640.000000	-0.002910 
639.000000	-0.003080 
638.000000	-0.003100 
637.000000	-0.003090 
636.000000	-0.003200 
635.000000	-0.003210 
634.000000	-0.003170 
633.000000	-0.003160 
632.000000	-0.003170 
631.000000	-0.003090 
630.000000	-0.003170 
629.000000	-0.003030 
628.000000	-0.002960 
627.000000	-0.002980 
626.000000	-0.002850 
625.000000	-0.002800 
624.000000	-0.003040 
623.000000	-0.003090 
622.000000	-0.002960 
621.000000	-0.002970 
620.000000	-0.002880 
619.000000	-0.002950 
618.000000	-0.002870 
617.000000	-0.003050 
616.000000	-0.002890 
615.000000	-0.002640 
614.000000	-0.002920 
613.000000	-0.002760 
612.000000	-0.002740 
611.000000	-0.002980 
610.000000	-0.003080 
609.000000	-0.002920 
608.000000	-0.002900 
607.000000	-0.002790 
606.000000	-0.002880 
605.000000	-0.002750 
604.000000	-0.002440 
603.000000	-0.002740 
602.000000	-0.002780 
601.000000	-0.002860 
600.000000	-0.002850 
599.000000	-0.002650 
598.000000	-0.002710 
597.000000	-0.002810 
596.000000	-0.002650 
595.000000	-0.002740 
594.000000	-0.002520 
593.000000	-0.002600 
592.000000	-0.002520 
591.000000	-0.002500 
590.000000	-0.002420 
589.000000	-0.002470 
588.000000	-0.002370 
587.000000	-0.002610 
586.000000	-0.002480 
585.000000	-0.002750 
584.000000	-0.002750 
583.000000	-0.002510 
582.000000	-0.002600 
581.000000	-0.002490 
580.000000	-0.002540 
579.000000	-0.002500 
578.000000	-0.002440 
577.000000	-0.002320 
576.000000	-0.002450 
575.000000	-0.002340 
574.000000	-0.002330 
573.000000	-0.002480 
572.000000	-0.002310 
571.000000	-0.002290 
570.000000	-0.002320 
569.000000	-0.002400 
568.000000	-0.002230 
567.000000	-0.002170 
566.000000	-0.002170 
565.000000	-0.002300 
564.000000	-0.002190 
563.000000	-0.002180 
562.000000	-0.002300 
561.000000	-0.002380 
560.000000	-0.002400 
559.000000	-0.002190 
558.000000	-0.002060 
557.000000	-0.002250 
556.000000	-0.002130 
555.000000	-0.002190 
554.000000	-0.002240 
553.000000	-0.002260 
552.000000	-0.002090 
551.000000	-0.002190 
550.000000	-0.002040 
549.000000	-0.002080 
548.000000	-0.002080 
547.000000	-0.002100 
546.000000	-0.001960 
545.000000	-0.002040 
544.000000	-0.001970 
543.000000	-0.002220 
542.000000	-0.001910 
541.000000	-0.002080 
540.000000	-0.001980 
539.000000	-0.002020 
538.000000	-0.001740 
537.000000	-0.001670 
536.000000	-0.001590 
535.000000	-0.001610 
534.000000	-0.001740 
533.000000	-0.001800 
532.000000	-0.001710 
531.000000	-0.002020 
530.000000	-0.002340 
529.000000	-0.002070 
528.000000	-0.001980 
527.000000	-0.001890 
526.000000	-0.001920 
525.000000	-0.001850 
524.000000	-0.001480 
523.000000	-0.001790 
522.000000	-0.001780 
521.000000	-0.001820 
520.000000	-0.001870 
519.000000	-0.001540 
518.000000	-0.001660 
517.000000	-0.001480 
516.000000	-0.001540 
515.000000	-0.001570 
514.000000	-0.001560 
513.000000	-0.001540 
512.000000	-0.001150 
511.000000	-0.001180 
510.000000	-0.001270 
509.000000	-0.000960 
508.000000	-0.000920 
507.000000	-0.001350 
506.000000	-0.001610 
505.000000	-0.001520 
504.000000	-0.001440 
503.000000	-0.001460 
502.000000	-0.001330 
501.000000	-0.001270 
500.000000	-0.001070 
499.000000	-0.001030 
498.000000	-0.000990 
497.000000	-0.000930 
496.000000	-0.000900 
495.000000	-0.000410 
494.000000	-0.000770 
493.000000	-0.000930 
492.000000	-0.000700 
491.000000	-0.000660 
490.000000	-0.000380 
489.000000	-0.000510 
488.000000	-0.000280 
487.000000	-0.000160 
486.000000	-0.000130 
485.000000	-0.000060 
484.000000	-0.000030 
483.000000	-0.000570 
482.000000	-0.000590 
481.000000	-0.000690 
480.000000	-0.000770 
479.000000	-0.000889 
478.000000	-0.000970 
477.000000	-0.000610 
476.000000	-0.000510 
475.000000	-0.000200 
474.000000	-0.000520 
473.000000	-0.000550 
472.000000	-0.000580 
471.000000	-0.000290 
470.000000	-0.000540 
469.000000	-0.000700 
468.000000	-0.000410 
467.000000	-0.000360 
466.000000	-0.000650 
465.000000	-0.000550 
464.000000	-0.000450 
463.000000	-0.000340 
462.000000	-0.000180 
461.000000	0.000240  
460.000000	-0.000230 
459.000000	-0.000490 
458.000000	-0.000580 
457.000000	-0.000920 
456.000000	-0.001570 
455.000000	-0.001310 
454.000000	-0.000850 
453.000000	-0.001030 
452.000000	-0.001060 
451.000000	-0.000790 
450.000000	-0.000500 
449.000000	-0.000770 
448.000000	-0.000690 
447.000000	-0.000650 
446.000000	-0.001210 
445.000000	-0.001020 
444.000000	-0.000520 
443.000000	-0.000650 
442.000000	-0.000960 
441.000000	-0.000800 
440.000000	-0.000380 
439.000000	-0.000390 
438.000000	-0.000190 
437.000000	0.000120  
436.000000	-0.000010 
435.000000	-0.000520 
434.000000	-0.000550 
433.000000	-0.001160 
432.000000	-0.001840 
431.000000	-0.001690 
430.000000	-0.001430 
429.000000	-0.001450 
428.000000	-0.001110 
427.000000	-0.000900 
426.000000	-0.000780 
425.000000	-0.001130 
424.000000	-0.000670 
423.000000	-0.001110 
422.000000	-0.001070 
421.000000	-0.001320 
420.000000	-0.000730 
419.000000	-0.000540 
418.000000	-0.000810 
417.000000	-0.000710 
416.000000	-0.000610 
415.000000	-0.000580 
414.000000	-0.000430 
413.000000	-0.000610 
412.000000	-0.000270 
411.000000	-0.000520 
410.000000	-0.000440 
409.000000	-0.000250 
408.000000	-0.000250 
407.000000	-0.000340 
406.000000	-0.000410 
405.000000	-0.000560 
404.000000	-0.000470 
403.000000	-0.001140 
402.000000	-0.000910 
401.000000	-0.000889 
400.000000	-0.001050 
399.000000	-0.000720 
398.000000	-0.000640 
397.000000	-0.000810 
396.000000	-0.000730 
395.000000	-0.000570 
394.000000	-0.000780 
393.000000	-0.000870 
392.000000	-0.000960 
391.000000	-0.000570 
390.000000	-0.000630 
389.000000	-0.000870 
388.000000	-0.000090 
387.000000	-0.000480 
386.000000	-0.000200 
385.000000	0.000250  
384.000000	0.000630  
383.000000	0.000210  
382.000000	0.000950  
381.000000	0.001460  
380.000000	0.002350  
379.000000	0.002960  
378.000000	0.003440  
377.000000	0.003410  
376.000000	0.004040  
375.000000	0.004500  
374.000000	0.005270  
373.000000	0.006950  
372.000000	0.009209  
371.000000	0.011000  
370.000000	0.014010  
369.000000	0.017360  
368.000000	0.021360  
367.000000	0.024460  
366.000000	0.029550  
365.000000	0.034990  
364.000000	0.041220  
363.000000	0.048420  
362.000000	0.056470  
361.000000	0.064440  
360.000000	0.073870  
359.000000	0.084120  
358.000000	0.095670  
357.000000	0.106950  
356.000000	0.119280  
355.000000	0.131390  
354.000000	0.143870  
353.000000	0.156470  
352.000000	0.168880  
351.000000	0.180980  
350.000000	0.192520  
349.000000	0.204220  
348.000000	0.215450  
347.000000	0.226780  
346.000000	0.237390  
345.000000	0.248310  
344.000000	0.257710  
343.000000	0.266690  
342.000000	0.275690  
341.000000	0.283390  
340.000000	0.291050  
339.000000	0.297820  
338.000000	0.304820  
337.000000	0.309750  
336.000000	0.315200  
335.000000	0.319640  
334.000000	0.325290  
333.000000	0.327270  
332.000000	0.330740  
331.000000	0.332380  
330.000000	0.334340  
329.000000	0.335700  
328.000000	0.334360  
327.000000	0.331250  
326.000000	0.329810  
325.000000	0.327720  
324.000000	0.321700  
323.000000	0.318810  
322.000000	0.315380  
321.000000	0.309740  
320.000000	0.303540  
319.000000	0.298620  
318.000000	0.292450  
317.000000	0.286200  
316.000000	0.279960  
315.000000	0.272810  
314.000000	0.264430  
313.000000	0.256380  
312.000000	0.248050  
311.000000	0.238770  
310.000000	0.229870  
309.000000	0.222510  
308.000000	0.214260  
307.000000	0.206060  
306.000000	0.198190  
305.000000	0.190150  
304.000000	0.181910  
303.000000	0.173940  
302.000000	0.166700  
301.000000	0.158800  
300.000000	0.150860  
299.000000	0.145010  
298.000000	0.139020  
297.000000	0.132440  
296.000000	0.127010  
295.000000	0.122130  
294.000000	0.117130  
293.000000	0.111660  
292.000000	0.106840  
291.000000	0.101470  
290.000000	0.095780  
289.000000	0.090840  
288.000000	0.085999  
287.000000	0.081840  
286.000000	0.077990  
285.000000	0.074969  
284.000000	0.072140  
283.000000	0.069040  
282.000000	0.065970  
281.000000	0.062830  
280.000000	0.059230  
279.000000	0.056160  
278.000000	0.053290  
277.000000	0.050480  
276.000000	0.048540  
275.000000	0.046590  
274.000000	0.044280  
273.000000	0.041750  
272.000000	0.040050  
271.000000	0.038180  
270.000000	0.036200  
269.000000	0.034630  
268.000000	0.033330  
267.000000	0.031760  
266.000000	0.030280  
265.000000	0.029220  
264.000000	0.027800  
263.000000	0.026470  
262.000000	0.025670  
261.000000	0.025050  
260.000000	0.024570  
259.000000	0.024620  
258.000000	0.024740  
257.000000	0.025120  
256.000000	0.025280  
255.000000	0.026190  
254.000000	0.027280  
253.000000	0.028930  
252.000000	0.031970  
251.000000	0.035660  
250.000000	0.040340  

