PE UV                   SPECTRUM    ASCII       PEDS        1.60        
  -1
PH3A.TXT
15/03/18
15:14:07.00
15/03/18
15:19:02.00


250.000000
1









4444

SCAN
1
1


0.0
240.0
2.00
MANUAL



UV/VIS




































#HDR
-1
-1
#GR
NM
A
0.00000011920928955078
0.0
700.000000
1.000000
451
8
0.270110
0.002190
#DATA
700.000000	0.002400 
699.000000	0.002310 
698.000000	0.002370 
697.000000	0.002460 
696.000000	0.002290 
695.000000	0.002410 
694.000000	0.002340 
693.000000	0.002420 
692.000000	0.002480 
691.000000	0.002420 
690.000000	0.002440 
689.000000	0.002380 
688.000000	0.002410 
687.000000	0.002290 
686.000000	0.002330 
685.000000	0.002320 
684.000000	0.002570 
683.000000	0.002420 
682.000000	0.002200 
681.000000	0.002290 
680.000000	0.002500 
679.000000	0.002490 
678.000000	0.002610 
677.000000	0.002620 
676.000000	0.002660 
675.000000	0.002550 
674.000000	0.002590 
673.000000	0.002490 
672.000000	0.002370 
671.000000	0.002540 
670.000000	0.002470 
669.000000	0.002480 
668.000000	0.002360 
667.000000	0.002370 
666.000000	0.002510 
665.000000	0.002400 
664.000000	0.002540 
663.000000	0.002580 
662.000000	0.002490 
661.000000	0.002660 
660.000000	0.002590 
659.000000	0.002420 
658.000000	0.002410 
657.000000	0.002600 
656.000000	0.002360 
655.000000	0.002280 
654.000000	0.002660 
653.000000	0.002550 
652.000000	0.002630 
651.000000	0.002580 
650.000000	0.002720 
649.000000	0.002410 
648.000000	0.002550 
647.000000	0.002610 
646.000000	0.002290 
645.000000	0.002190 
644.000000	0.002460 
643.000000	0.002520 
642.000000	0.002470 
641.000000	0.002450 
640.000000	0.002720 
639.000000	0.002370 
638.000000	0.002410 
637.000000	0.002540 
636.000000	0.002650 
635.000000	0.002460 
634.000000	0.002460 
633.000000	0.002610 
632.000000	0.002490 
631.000000	0.002460 
630.000000	0.002430 
629.000000	0.002650 
628.000000	0.002640 
627.000000	0.002540 
626.000000	0.002810 
625.000000	0.002740 
624.000000	0.002680 
623.000000	0.002640 
622.000000	0.002630 
621.000000	0.002470 
620.000000	0.002400 
619.000000	0.002590 
618.000000	0.002490 
617.000000	0.002500 
616.000000	0.002630 
615.000000	0.002590 
614.000000	0.002410 
613.000000	0.002590 
612.000000	0.002750 
611.000000	0.002590 
610.000000	0.002480 
609.000000	0.002810 
608.000000	0.002700 
607.000000	0.002640 
606.000000	0.002590 
605.000000	0.002810 
604.000000	0.002600 
603.000000	0.002740 
602.000000	0.002880 
601.000000	0.002840 
600.000000	0.002800 
599.000000	0.002950 
598.000000	0.002770 
597.000000	0.002580 
596.000000	0.002840 
595.000000	0.002720 
594.000000	0.002740 
593.000000	0.002680 
592.000000	0.002950 
591.000000	0.002800 
590.000000	0.003040 
589.000000	0.003060 
588.000000	0.003210 
587.000000	0.003340 
586.000000	0.003460 
585.000000	0.003620 
584.000000	0.003540 
583.000000	0.003530 
582.000000	0.003590 
581.000000	0.003840 
580.000000	0.003760 
579.000000	0.004020 
578.000000	0.003950 
577.000000	0.004100 
576.000000	0.004240 
575.000000	0.004200 
574.000000	0.004290 
573.000000	0.004210 
572.000000	0.004300 
571.000000	0.004230 
570.000000	0.004220 
569.000000	0.004210 
568.000000	0.004310 
567.000000	0.004530 
566.000000	0.004560 
565.000000	0.004840 
564.000000	0.004810 
563.000000	0.004950 
562.000000	0.005160 
561.000000	0.005250 
560.000000	0.005380 
559.000000	0.005510 
558.000000	0.005730 
557.000000	0.005650 
556.000000	0.005910 
555.000000	0.006170 
554.000000	0.006060 
553.000000	0.006340 
552.000000	0.006630 
551.000000	0.006610 
550.000000	0.006930 
549.000000	0.007020 
548.000000	0.007290 
547.000000	0.007470 
546.000000	0.007870 
545.000000	0.008040 
544.000000	0.008200 
543.000000	0.008630 
542.000000	0.008690 
541.000000	0.008780 
540.000000	0.009160 
539.000000	0.009500 
538.000000	0.009889 
537.000000	0.010200 
536.000000	0.010610 
535.000000	0.011240 
534.000000	0.011560 
533.000000	0.011910 
532.000000	0.012840 
531.000000	0.012990 
530.000000	0.013540 
529.000000	0.014310 
528.000000	0.014700 
527.000000	0.015170 
526.000000	0.015680 
525.000000	0.016410 
524.000000	0.016960 
523.000000	0.017720 
522.000000	0.018700 
521.000000	0.019270 
520.000000	0.020050 
519.000000	0.020790 
518.000000	0.021670 
517.000000	0.022040 
516.000000	0.022850 
515.000000	0.023330 
514.000000	0.024360 
513.000000	0.024960 
512.000000	0.026110 
511.000000	0.026990 
510.000000	0.027830 
509.000000	0.028800 
508.000000	0.029680 
507.000000	0.031000 
506.000000	0.031960 
505.000000	0.032930 
504.000000	0.033690 
503.000000	0.034630 
502.000000	0.035740 
501.000000	0.036690 
500.000000	0.037540 
499.000000	0.038740 
498.000000	0.039940 
497.000000	0.041020 
496.000000	0.041900 
495.000000	0.043120 
494.000000	0.043730 
493.000000	0.044820 
492.000000	0.045590 
491.000000	0.046250 
490.000000	0.047100 
489.000000	0.047900 
488.000000	0.049010 
487.000000	0.050090 
486.000000	0.051070 
485.000000	0.051800 
484.000000	0.052780 
483.000000	0.053660 
482.000000	0.054750 
481.000000	0.055480 
480.000000	0.056040 
479.000000	0.056840 
478.000000	0.057770 
477.000000	0.058480 
476.000000	0.059270 
475.000000	0.059890 
474.000000	0.060930 
473.000000	0.061540 
472.000000	0.062430 
471.000000	0.063190 
470.000000	0.063519 
469.000000	0.063690 
468.000000	0.064060 
467.000000	0.063950 
466.000000	0.064519 
465.000000	0.065170 
464.000000	0.065230 
463.000000	0.065850 
462.000000	0.066300 
461.000000	0.066590 
460.000000	0.066850 
459.000000	0.067110 
458.000000	0.067510 
457.000000	0.067580 
456.000000	0.068040 
455.000000	0.068349 
454.000000	0.068500 
453.000000	0.068090 
452.000000	0.068520 
451.000000	0.068300 
450.000000	0.068540 
449.000000	0.068870 
448.000000	0.069190 
447.000000	0.069300 
446.000000	0.068980 
445.000000	0.069070 
444.000000	0.068540 
443.000000	0.067919 
442.000000	0.067739 
441.000000	0.067280 
440.000000	0.067100 
439.000000	0.067340 
438.000000	0.067150 
437.000000	0.067230 
436.000000	0.066489 
435.000000	0.066730 
434.000000	0.066739 
433.000000	0.065559 
432.000000	0.065770 
431.000000	0.065730 
430.000000	0.064480 
429.000000	0.063790 
428.000000	0.063690 
427.000000	0.063570 
426.000000	0.062659 
425.000000	0.062590 
424.000000	0.062600 
423.000000	0.061760 
422.000000	0.061530 
421.000000	0.061460 
420.000000	0.059820 
419.000000	0.059720 
418.000000	0.059070 
417.000000	0.058400 
416.000000	0.057850 
415.000000	0.057030 
414.000000	0.056090 
413.000000	0.055480 
412.000000	0.055150 
411.000000	0.054250 
410.000000	0.053670 
409.000000	0.053080 
408.000000	0.052670 
407.000000	0.052140 
406.000000	0.050890 
405.000000	0.050460 
404.000000	0.049660 
403.000000	0.049070 
402.000000	0.048500 
401.000000	0.047670 
400.000000	0.046780 
399.000000	0.046070 
398.000000	0.045840 
397.000000	0.044790 
396.000000	0.044220 
395.000000	0.043740 
394.000000	0.042920 
393.000000	0.042030 
392.000000	0.041470 
391.000000	0.040750 
390.000000	0.039390 
389.000000	0.038630 
388.000000	0.037600 
387.000000	0.036950 
386.000000	0.036230 
385.000000	0.035740 
384.000000	0.035360 
383.000000	0.032760 
382.000000	0.032860 
381.000000	0.033110 
380.000000	0.033340 
379.000000	0.032930 
378.000000	0.032680 
377.000000	0.032830 
376.000000	0.032870 
375.000000	0.032850 
374.000000	0.033190 
373.000000	0.033550 
372.000000	0.034360 
371.000000	0.035470 
370.000000	0.036780 
369.000000	0.038930 
368.000000	0.040810 
367.000000	0.043820 
366.000000	0.046990 
365.000000	0.050700 
364.000000	0.055300 
363.000000	0.060500 
362.000000	0.065430 
361.000000	0.070620 
360.000000	0.077299 
359.000000	0.083690 
358.000000	0.091740 
357.000000	0.099950 
356.000000	0.109240 
355.000000	0.118180 
354.000000	0.127690 
353.000000	0.136860 
352.000000	0.145960 
351.000000	0.155660 
350.000000	0.164840 
349.000000	0.173940 
348.000000	0.181850 
347.000000	0.190390 
346.000000	0.198230 
345.000000	0.205510 
344.000000	0.212400 
343.000000	0.219840 
342.000000	0.226190 
341.000000	0.232540 
340.000000	0.238660 
339.000000	0.244430 
338.000000	0.248120 
337.000000	0.252770 
336.000000	0.256370 
335.000000	0.259040 
334.000000	0.262030 
333.000000	0.265030 
332.000000	0.267170 
331.000000	0.268480 
330.000000	0.269850 
329.000000	0.270110 
328.000000	0.269790 
327.000000	0.269200 
326.000000	0.269510 
325.000000	0.266290 
324.000000	0.264790 
323.000000	0.261570 
322.000000	0.257220 
321.000000	0.252680 
320.000000	0.248510 
319.000000	0.243870 
318.000000	0.239390 
317.000000	0.234860 
316.000000	0.231120 
315.000000	0.224700 
314.000000	0.218570 
313.000000	0.214190 
312.000000	0.208200 
311.000000	0.202240 
310.000000	0.196650 
309.000000	0.190820 
308.000000	0.183470 
307.000000	0.177660 
306.000000	0.171630 
305.000000	0.165970 
304.000000	0.160000 
303.000000	0.155050 
302.000000	0.149260 
301.000000	0.143920 
300.000000	0.139310 
299.000000	0.134190 
298.000000	0.128550 
297.000000	0.124040 
296.000000	0.120380 
295.000000	0.116190 
294.000000	0.112510 
293.000000	0.108940 
292.000000	0.105660 
291.000000	0.101440 
290.000000	0.098190 
289.000000	0.095200 
288.000000	0.092180 
287.000000	0.089870 
286.000000	0.087970 
285.000000	0.085860 
284.000000	0.083360 
283.000000	0.081430 
282.000000	0.079540 
281.000000	0.076980 
280.000000	0.075110 
279.000000	0.073190 
278.000000	0.071290 
277.000000	0.069740 
276.000000	0.068560 
275.000000	0.066970 
274.000000	0.065150 
273.000000	0.064199 
272.000000	0.062960 
271.000000	0.061760 
270.000000	0.060950 
269.000000	0.060030 
268.000000	0.059110 
267.000000	0.058080 
266.000000	0.057650 
265.000000	0.056560 
264.000000	0.055530 
263.000000	0.054580 
262.000000	0.054030 
261.000000	0.052960 
260.000000	0.052170 
259.000000	0.051770 
258.000000	0.051100 
257.000000	0.050140 
256.000000	0.049800 
255.000000	0.049650 
254.000000	0.049600 
253.000000	0.049600 
252.000000	0.050660 
251.000000	0.051870 
250.000000	0.053920 

